# Temperatura_=_2.628616600790512
# Concentracion g/m^3_=_19900.0
# C_Vs_to_Am_M_A/Vsm_=_116720831517.84952
# pendiente_HvsI_1/m_=_3716.3
# ordenada_HvsI_A/m_=_1297.0
# frecuencia_Hz_=_238342.50167783553
# Promedio de 253 ciclos

Tiempo_(s)	Campo_(V.s)	Magnetizacion_(V.s)	Campo_(kA/m)	Magnetizacion_(A/m)
0.000000e+00	-8.946807e-10	-8.789617e-09	-5.692363e+01	-1.026729e+03
1.000000e-08	-8.945635e-10	-8.789192e-09	-5.691617e+01	-1.026689e+03
2.000000e-08	-8.942445e-10	-8.791216e-09	-5.689587e+01	-1.026601e+03
3.000000e-08	-8.937360e-10	-8.789537e-09	-5.686352e+01	-1.026462e+03
4.000000e-08	-8.930579e-10	-8.786871e-09	-5.682038e+01	-1.026273e+03
5.000000e-08	-8.922164e-10	-8.785404e-09	-5.676684e+01	-1.026032e+03
6.000000e-08	-8.911753e-10	-8.781643e-09	-5.670060e+01	-1.025738e+03
7.000000e-08	-8.899085e-10	-8.775348e-09	-5.662000e+01	-1.025388e+03
8.000000e-08	-8.884303e-10	-8.763784e-09	-5.652595e+01	-1.024980e+03
9.000000e-08	-8.867262e-10	-8.750463e-09	-5.641753e+01	-1.024512e+03
1.000000e-07	-8.847714e-10	-8.786712e-09	-5.629316e+01	-1.023980e+03
1.100000e-07	-8.825636e-10	-8.817212e-09	-5.615269e+01	-1.023383e+03
1.200000e-07	-8.801598e-10	-8.791009e-09	-5.599975e+01	-1.022718e+03
1.300000e-07	-8.776125e-10	-8.780822e-09	-5.583768e+01	-1.021982e+03
1.400000e-07	-8.749447e-10	-8.731986e-09	-5.566794e+01	-1.021176e+03
1.500000e-07	-8.721379e-10	-8.683186e-09	-5.548937e+01	-1.020298e+03
1.600000e-07	-8.691086e-10	-8.781537e-09	-5.529663e+01	-1.019350e+03
1.700000e-07	-8.658852e-10	-8.728625e-09	-5.509154e+01	-1.018334e+03
1.800000e-07	-8.625003e-10	-8.663865e-09	-5.487617e+01	-1.017253e+03
1.900000e-07	-8.588742e-10	-8.781678e-09	-5.464547e+01	-1.016110e+03
2.000000e-07	-8.550728e-10	-8.688572e-09	-5.440361e+01	-1.014910e+03
2.100000e-07	-8.511401e-10	-8.623364e-09	-5.415339e+01	-1.013658e+03
2.200000e-07	-8.470136e-10	-8.701517e-09	-5.389085e+01	-1.012360e+03
2.300000e-07	-8.426980e-10	-8.634137e-09	-5.361628e+01	-1.011018e+03
2.400000e-07	-8.381495e-10	-8.617042e-09	-5.332688e+01	-1.009638e+03
2.500000e-07	-8.333663e-10	-8.652260e-09	-5.302255e+01	-1.008222e+03
2.600000e-07	-8.284045e-10	-8.602865e-09	-5.270686e+01	-1.006771e+03
2.700000e-07	-8.232387e-10	-8.605092e-09	-5.237819e+01	-1.005285e+03
2.800000e-07	-8.178702e-10	-8.596871e-09	-5.203662e+01	-1.003762e+03
2.900000e-07	-8.123174e-10	-8.585963e-09	-5.168333e+01	-1.002198e+03
3.000000e-07	-8.065788e-10	-8.566358e-09	-5.131821e+01	-1.000588e+03
3.100000e-07	-8.006538e-10	-8.533837e-09	-5.094124e+01	-9.989261e+02
3.200000e-07	-7.945245e-10	-8.535308e-09	-5.055127e+01	-9.972042e+02
3.300000e-07	-7.882074e-10	-8.519941e-09	-5.014935e+01	-9.954150e+02
3.400000e-07	-7.817161e-10	-8.513439e-09	-4.973634e+01	-9.935508e+02
3.500000e-07	-7.750575e-10	-8.485866e-09	-4.931270e+01	-9.916047e+02
3.600000e-07	-7.682395e-10	-8.462859e-09	-4.887890e+01	-9.895704e+02
3.700000e-07	-7.612381e-10	-8.461312e-09	-4.843345e+01	-9.874434e+02
3.800000e-07	-7.540577e-10	-8.426609e-09	-4.797659e+01	-9.852206e+02
3.900000e-07	-7.466943e-10	-8.405148e-09	-4.750810e+01	-9.829009e+02
4.000000e-07	-7.391378e-10	-8.386802e-09	-4.702733e+01	-9.804847e+02
4.100000e-07	-7.314036e-10	-8.365334e-09	-4.653524e+01	-9.779743e+02
4.200000e-07	-7.234909e-10	-8.356089e-09	-4.603180e+01	-9.753731e+02
4.300000e-07	-7.154087e-10	-8.332615e-09	-4.551758e+01	-9.726854e+02
4.400000e-07	-7.071726e-10	-8.306296e-09	-4.499356e+01	-9.699161e+02
4.500000e-07	-6.987909e-10	-8.277142e-09	-4.446027e+01	-9.670694e+02
4.600000e-07	-6.902632e-10	-8.259686e-09	-4.391770e+01	-9.641489e+02
4.700000e-07	-6.815868e-10	-8.238162e-09	-4.336567e+01	-9.611570e+02
4.800000e-07	-6.727688e-10	-8.206781e-09	-4.280463e+01	-9.580938e+02
4.900000e-07	-6.638079e-10	-8.184168e-09	-4.223450e+01	-9.549577e+02
5.000000e-07	-6.546954e-10	-8.157807e-09	-4.165472e+01	-9.517445e+02
5.100000e-07	-6.454284e-10	-8.135344e-09	-4.106511e+01	-9.484476e+02
5.200000e-07	-6.360212e-10	-8.102971e-09	-4.046659e+01	-9.450584e+02
5.300000e-07	-6.264896e-10	-8.064878e-09	-3.986014e+01	-9.415663e+02
5.400000e-07	-6.168256e-10	-8.030099e-09	-3.924528e+01	-9.379595e+02
5.500000e-07	-6.070111e-10	-7.999497e-09	-3.862083e+01	-9.342253e+02
5.600000e-07	-5.970494e-10	-7.971581e-09	-3.798702e+01	-9.303513e+02
5.700000e-07	-5.869569e-10	-7.935113e-09	-3.734489e+01	-9.263254e+02
5.800000e-07	-5.767475e-10	-7.898098e-09	-3.669533e+01	-9.221367e+02
5.900000e-07	-5.664201e-10	-7.861289e-09	-3.603825e+01	-9.177763e+02
6.000000e-07	-5.559616e-10	-7.825337e-09	-3.537284e+01	-9.132371e+02
6.100000e-07	-5.453709e-10	-7.781466e-09	-3.469901e+01	-9.085143e+02
6.200000e-07	-5.346507e-10	-7.733820e-09	-3.401694e+01	-9.036055e+02
6.300000e-07	-5.238074e-10	-7.692867e-09	-3.332704e+01	-8.985099e+02
6.400000e-07	-5.128495e-10	-7.658557e-09	-3.262985e+01	-8.932284e+02
6.500000e-07	-5.017865e-10	-7.620115e-09	-3.192597e+01	-8.877626e+02
6.600000e-07	-4.906168e-10	-7.567191e-09	-3.121530e+01	-8.821141e+02
6.700000e-07	-4.793289e-10	-7.510200e-09	-3.049712e+01	-8.762838e+02
6.800000e-07	-4.679189e-10	-7.455951e-09	-2.977117e+01	-8.702709e+02
6.900000e-07	-4.563827e-10	-7.406352e-09	-2.903719e+01	-8.640722e+02
7.000000e-07	-4.447282e-10	-7.352386e-09	-2.829567e+01	-8.576817e+02
7.100000e-07	-4.329671e-10	-7.294836e-09	-2.754738e+01	-8.510896e+02
7.200000e-07	-4.211100e-10	-7.239554e-09	-2.679298e+01	-8.442828e+02
7.300000e-07	-4.091606e-10	-7.186228e-09	-2.603270e+01	-8.372445e+02
7.400000e-07	-3.971135e-10	-7.127084e-09	-2.526621e+01	-8.299547e+02
7.500000e-07	-3.849735e-10	-7.054971e-09	-2.449381e+01	-8.223905e+02
7.600000e-07	-3.727495e-10	-6.978883e-09	-2.371607e+01	-8.145275e+02
7.700000e-07	-3.604427e-10	-6.907471e-09	-2.293305e+01	-8.063398e+02
7.800000e-07	-3.480497e-10	-6.838803e-09	-2.214456e+01	-7.978018e+02
7.900000e-07	-3.355756e-10	-6.763062e-09	-2.135090e+01	-7.888882e+02
8.000000e-07	-3.230307e-10	-6.681640e-09	-2.055273e+01	-7.795756e+02
8.100000e-07	-3.104229e-10	-6.600043e-09	-1.975056e+01	-7.698422e+02
8.200000e-07	-2.977533e-10	-6.519067e-09	-1.894447e+01	-7.596686e+02
8.300000e-07	-2.850194e-10	-6.429805e-09	-1.813427e+01	-7.490374e+02
8.400000e-07	-2.722247e-10	-6.328697e-09	-1.732022e+01	-7.379323e+02
8.500000e-07	-2.593728e-10	-6.225562e-09	-1.650252e+01	-7.263378e+02
8.600000e-07	-2.464624e-10	-6.124205e-09	-1.568111e+01	-7.142371e+02
8.700000e-07	-2.334955e-10	-6.019689e-09	-1.485609e+01	-7.016107e+02
8.800000e-07	-2.204783e-10	-5.903653e-09	-1.402788e+01	-6.884349e+02
8.900000e-07	-2.074187e-10	-5.780985e-09	-1.319698e+01	-6.746790e+02
9.000000e-07	-1.943190e-10	-5.657743e-09	-1.236351e+01	-6.603042e+02
9.100000e-07	-1.811766e-10	-5.532006e-09	-1.152734e+01	-6.452615e+02
9.200000e-07	-1.679906e-10	-5.396854e-09	-1.068839e+01	-6.294905e+02
9.300000e-07	-1.547645e-10	-5.249097e-09	-9.846881e+00	-6.129186e+02
9.400000e-07	-1.415045e-10	-5.094905e-09	-9.003219e+00	-5.954609e+02
9.500000e-07	-1.282125e-10	-4.936114e-09	-8.157522e+00	-5.770212e+02
9.600000e-07	-1.148901e-10	-4.767575e-09	-7.309886e+00	-5.574929e+02
9.700000e-07	-1.015421e-10	-4.583163e-09	-6.460627e+00	-5.367623e+02
9.800000e-07	-8.817475e-11	-4.383661e-09	-5.610132e+00	-5.147109e+02
9.900000e-07	-7.479020e-11	-4.177318e-09	-4.758545e+00	-4.912200e+02
1.000000e-06	-6.138832e-11	-3.969538e-09	-3.905855e+00	-4.661750e+02
1.010000e-06	-4.797323e-11	-3.751574e-09	-3.052325e+00	-4.394707e+02
1.020000e-06	-3.455057e-11	-3.513353e-09	-2.198314e+00	-4.110161e+02
1.030000e-06	-2.112237e-11	-3.255228e-09	-1.343949e+00	-3.807399e+02
1.040000e-06	-7.687796e-12	-2.980537e-09	-4.891795e-01	-3.485955e+02
1.050000e-06	5.751709e-12	-2.687486e-09	3.659040e-01	-3.145653e+02
1.060000e-06	1.919159e-11	-2.372116e-09	1.221012e+00	-2.786645e+02
1.070000e-06	3.262702e-11	-2.038477e-09	2.075836e+00	-2.409435e+02
1.080000e-06	4.605591e-11	-1.696905e-09	2.930244e+00	-2.014898e+02
1.090000e-06	5.947801e-11	-1.350311e-09	3.784220e+00	-1.604282e+02
1.100000e-06	7.289024e-11	-9.904490e-10	4.637569e+00	-1.179196e+02
1.110000e-06	8.628757e-11	-6.121451e-10	5.489969e+00	-7.415882e+01
1.120000e-06	9.966731e-11	-2.224076e-10	6.341250e+00	-2.937103e+01
1.130000e-06	1.130287e-10	1.698804e-10	7.191365e+00	1.619307e+01
1.140000e-06	1.263672e-10	5.657714e-10	8.040021e+00	6.226291e+01
1.150000e-06	1.396762e-10	9.676536e-10	8.886803e+00	1.085545e+02
1.160000e-06	1.529502e-10	1.368282e-09	9.731353e+00	1.547771e+02
1.170000e-06	1.661850e-10	1.757869e-09	1.057341e+01	2.006409e+02
1.180000e-06	1.793784e-10	2.135338e-09	1.141284e+01	2.458631e+02
1.190000e-06	1.925277e-10	2.506238e-09	1.224946e+01	2.901755e+02
1.200000e-06	2.056298e-10	2.872928e-09	1.308307e+01	3.333298e+02
1.210000e-06	2.186838e-10	3.227879e-09	1.391362e+01	3.751035e+02
1.220000e-06	2.316900e-10	3.566613e-09	1.474113e+01	4.153034e+02
1.230000e-06	2.446452e-10	3.892656e-09	1.556540e+01	4.537693e+02
1.240000e-06	2.575435e-10	4.209223e-09	1.638605e+01	4.903756e+02
1.250000e-06	2.703785e-10	4.512406e-09	1.720267e+01	5.250319e+02
1.260000e-06	2.831469e-10	4.794354e-09	1.801505e+01	5.576829e+02
1.270000e-06	2.958496e-10	5.053426e-09	1.882326e+01	5.883068e+02
1.280000e-06	3.084918e-10	5.295338e-09	1.962761e+01	6.169126e+02
1.290000e-06	3.210756e-10	5.523026e-09	2.042826e+01	6.435372e+02
1.300000e-06	3.335955e-10	5.732025e-09	2.122483e+01	6.682414e+02
1.310000e-06	3.460410e-10	5.920223e-09	2.201667e+01	6.911061e+02
1.320000e-06	3.584045e-10	6.094898e-09	2.280329e+01	7.122276e+02
1.330000e-06	3.706848e-10	6.263359e-09	2.358462e+01	7.317136e+02
1.340000e-06	3.828830e-10	6.421230e-09	2.436072e+01	7.496789e+02
1.350000e-06	3.949950e-10	6.561027e-09	2.513134e+01	7.662418e+02
1.360000e-06	4.070144e-10	6.685113e-09	2.589607e+01	7.815206e+02
1.370000e-06	4.189406e-10	6.800888e-09	2.665487e+01	7.956308e+02
1.380000e-06	4.307766e-10	6.908857e-09	2.740793e+01	8.086829e+02
1.390000e-06	4.425177e-10	7.007018e-09	2.815495e+01	8.207806e+02
1.400000e-06	4.541513e-10	7.095094e-09	2.889513e+01	8.320197e+02
1.410000e-06	4.656712e-10	7.179747e-09	2.962807e+01	8.424875e+02
1.420000e-06	4.770783e-10	7.266731e-09	3.035384e+01	8.522623e+02
1.430000e-06	4.883710e-10	7.352215e-09	3.107234e+01	8.614138e+02
1.440000e-06	4.995495e-10	7.429307e-09	3.178357e+01	8.700036e+02
1.450000e-06	5.106220e-10	7.496862e-09	3.248805e+01	8.780852e+02
1.460000e-06	5.215952e-10	7.560631e-09	3.318621e+01	8.857056e+02
1.470000e-06	5.324635e-10	7.621693e-09	3.387771e+01	8.929053e+02
1.480000e-06	5.432128e-10	7.676138e-09	3.456163e+01	8.997196e+02
1.490000e-06	5.538361e-10	7.726892e-09	3.523753e+01	9.061789e+02
1.500000e-06	5.643285e-10	7.776198e-09	3.590510e+01	9.123098e+02
1.510000e-06	5.746872e-10	7.827009e-09	3.656417e+01	9.181355e+02
1.520000e-06	5.849193e-10	7.876007e-09	3.721518e+01	9.236761e+02
1.530000e-06	5.950265e-10	7.919853e-09	3.785825e+01	9.289493e+02
1.540000e-06	6.049974e-10	7.958439e-09	3.849264e+01	9.339707e+02
1.550000e-06	6.148220e-10	7.994739e-09	3.911773e+01	9.387541e+02
1.560000e-06	6.244970e-10	8.030968e-09	3.973329e+01	9.433117e+02
1.570000e-06	6.340279e-10	8.064104e-09	4.033969e+01	9.476544e+02
1.580000e-06	6.434271e-10	8.095922e-09	4.093771e+01	9.517922e+02
1.590000e-06	6.526967e-10	8.126481e-09	4.152749e+01	9.557342e+02
1.600000e-06	6.618237e-10	8.157493e-09	4.210819e+01	9.594889e+02
1.610000e-06	6.707947e-10	8.189370e-09	4.267897e+01	9.630646e+02
1.620000e-06	6.796071e-10	8.219002e-09	4.323965e+01	9.664693e+02
1.630000e-06	6.882695e-10	8.244231e-09	4.379080e+01	9.697113e+02
1.640000e-06	6.967908e-10	8.269253e-09	4.433296e+01	9.727988e+02
1.650000e-06	7.051657e-10	8.294460e-09	4.486581e+01	9.757404e+02
1.660000e-06	7.133822e-10	8.318668e-09	4.538858e+01	9.785449e+02
1.670000e-06	7.214346e-10	8.339749e-09	4.590091e+01	9.812213e+02
1.680000e-06	7.293256e-10	8.359125e-09	4.640297e+01	9.837788e+02
1.690000e-06	7.370566e-10	8.380180e-09	4.689485e+01	9.862264e+02
1.700000e-06	7.446153e-10	8.402143e-09	4.737577e+01	9.885729e+02
1.710000e-06	7.519910e-10	8.421546e-09	4.784504e+01	9.908267e+02
1.720000e-06	7.591914e-10	8.437177e-09	4.830317e+01	9.929954e+02
1.730000e-06	7.662288e-10	8.453777e-09	4.875092e+01	9.950857e+02
1.740000e-06	7.731063e-10	8.472730e-09	4.918850e+01	9.971032e+02
1.750000e-06	7.798124e-10	8.491398e-09	4.961517e+01	9.990521e+02
1.760000e-06	7.863362e-10	8.506990e-09	5.003024e+01	1.000936e+03
1.770000e-06	7.926877e-10	8.523839e-09	5.043436e+01	1.002756e+03
1.780000e-06	7.988805e-10	8.542481e-09	5.082837e+01	1.004513e+03
1.790000e-06	8.049154e-10	8.559288e-09	5.121234e+01	1.006206e+03
1.800000e-06	8.107720e-10	8.571546e-09	5.158497e+01	1.007835e+03
1.810000e-06	8.164379e-10	8.580670e-09	5.194545e+01	1.009397e+03
1.820000e-06	8.219218e-10	8.591133e-09	5.229437e+01	1.010891e+03
1.830000e-06	8.272099e-10	8.604005e-09	5.263082e+01	1.012315e+03
1.840000e-06	8.322754e-10	8.618525e-09	5.295311e+01	1.013666e+03
1.850000e-06	8.371293e-10	8.633035e-09	5.326194e+01	1.014944e+03
1.860000e-06	8.418022e-10	8.647662e-09	5.355925e+01	1.016149e+03
1.870000e-06	8.463074e-10	8.661173e-09	5.384589e+01	1.017280e+03
1.880000e-06	8.506283e-10	8.670262e-09	5.412080e+01	1.018340e+03
1.890000e-06	8.547452e-10	8.674629e-09	5.438274e+01	1.019330e+03
1.900000e-06	8.586735e-10	8.679515e-09	5.463268e+01	1.020254e+03
1.910000e-06	8.624289e-10	8.687803e-09	5.487161e+01	1.021114e+03
1.920000e-06	8.659989e-10	8.697876e-09	5.509876e+01	1.021915e+03
1.930000e-06	8.693633e-10	8.708372e-09	5.531281e+01	1.022662e+03
1.940000e-06	8.725313e-10	8.718347e-09	5.551437e+01	1.023357e+03
1.950000e-06	8.755228e-10	8.726745e-09	5.570471e+01	1.024004e+03
1.960000e-06	8.783325e-10	8.733258e-09	5.588347e+01	1.024607e+03
1.970000e-06	8.809317e-10	8.737298e-09	5.604885e+01	1.025167e+03
1.980000e-06	8.833178e-10	8.740538e-09	5.620066e+01	1.025688e+03
1.990000e-06	8.855185e-10	8.745148e-09	5.634069e+01	1.026169e+03
2.000000e-06	8.875394e-10	8.751282e-09	5.646926e+01	1.026611e+03
2.010000e-06	8.893604e-10	8.757001e-09	5.658512e+01	1.027014e+03
2.020000e-06	8.909727e-10	8.761343e-09	5.668770e+01	1.027376e+03
2.030000e-06	8.923866e-10	8.764989e-09	5.677767e+01	1.027697e+03
2.040000e-06	8.935901e-10	8.768066e-09	5.685424e+01	1.027976e+03
2.050000e-06	8.945681e-10	8.772048e-09	5.691646e+01	1.028211e+03
2.060000e-06	8.953402e-10	8.775755e-09	5.696558e+01	1.028400e+03
2.070000e-06	8.959294e-10	8.778789e-09	5.700307e+01	1.028543e+03
2.080000e-06	8.963317e-10	8.782042e-09	5.702867e+01	1.028639e+03
2.090000e-06	8.965274e-10	8.784206e-09	5.704112e+01	1.028687e+03
2.100000e-06	8.965231e-10	8.785205e-09	5.704085e+01	1.028686e+03
2.110000e-06	8.963434e-10	8.783414e-09	5.702942e+01	1.028637e+03
2.120000e-06	8.959954e-10	8.777339e-09	5.700727e+01	1.028538e+03
2.130000e-06	8.954566e-10	8.775202e-09	5.697300e+01	1.028390e+03
2.140000e-06	8.947209e-10	8.776342e-09	5.692619e+01	1.028190e+03
2.150000e-06	8.938126e-10	8.776915e-09	5.686840e+01	1.027939e+03
2.160000e-06	8.927146e-10	8.777139e-09	5.679854e+01	1.027633e+03
2.170000e-06	8.913966e-10	8.780031e-09	5.671468e+01	1.027272e+03
2.180000e-06	8.898884e-10	8.795843e-09	5.661872e+01	1.026852e+03
2.190000e-06	8.882131e-10	8.750323e-09	5.651214e+01	1.026372e+03
2.200000e-06	8.862835e-10	8.694539e-09	5.638936e+01	1.025828e+03
2.210000e-06	8.840229e-10	8.705543e-09	5.624554e+01	1.025217e+03
2.220000e-06	8.814945e-10	8.706312e-09	5.608467e+01	1.024537e+03
2.230000e-06	8.788190e-10	8.786059e-09	5.591444e+01	1.023788e+03
2.240000e-06	8.761146e-10	8.780563e-09	5.574238e+01	1.022967e+03
2.250000e-06	8.732889e-10	8.652366e-09	5.556259e+01	1.022075e+03
2.260000e-06	8.701747e-10	8.733590e-09	5.536446e+01	1.021113e+03
2.270000e-06	8.669242e-10	8.728014e-09	5.515764e+01	1.020084e+03
2.280000e-06	8.635317e-10	8.643978e-09	5.494179e+01	1.018990e+03
2.290000e-06	8.598553e-10	8.774648e-09	5.470789e+01	1.017835e+03
2.300000e-06	8.560323e-10	8.737572e-09	5.446465e+01	1.016625e+03
2.310000e-06	8.519973e-10	8.666094e-09	5.420793e+01	1.015363e+03
2.320000e-06	8.477227e-10	8.757004e-09	5.393596e+01	1.014055e+03
2.330000e-06	8.433648e-10	8.681670e-09	5.365869e+01	1.012706e+03
2.340000e-06	8.388093e-10	8.688061e-09	5.336885e+01	1.011319e+03
2.350000e-06	8.340578e-10	8.738373e-09	5.306653e+01	1.009895e+03
2.360000e-06	8.291128e-10	8.662829e-09	5.275192e+01	1.008438e+03
2.370000e-06	8.238783e-10	8.709643e-09	5.241887e+01	1.006944e+03
2.380000e-06	8.184861e-10	8.651091e-09	5.207580e+01	1.005413e+03
2.390000e-06	8.129042e-10	8.614900e-09	5.172065e+01	1.003841e+03
2.400000e-06	8.071037e-10	8.667522e-09	5.135160e+01	1.002221e+03
2.410000e-06	8.011677e-10	8.593394e-09	5.097393e+01	1.000547e+03
2.420000e-06	7.950322e-10	8.606177e-09	5.058356e+01	9.988126e+02
2.430000e-06	7.887256e-10	8.583152e-09	5.018230e+01	9.970089e+02
2.440000e-06	7.822134e-10	8.556938e-09	4.976797e+01	9.951289e+02
2.450000e-06	7.754952e-10	8.569328e-09	4.934053e+01	9.931655e+02
2.460000e-06	7.686331e-10	8.508579e-09	4.890393e+01	9.911130e+02
2.470000e-06	7.615683e-10	8.528765e-09	4.845444e+01	9.889669e+02
2.480000e-06	7.543521e-10	8.493534e-09	4.799531e+01	9.867248e+02
2.490000e-06	7.469596e-10	8.472827e-09	4.752497e+01	9.843856e+02
2.500000e-06	7.393764e-10	8.475749e-09	4.704249e+01	9.819503e+02
2.510000e-06	7.316409e-10	8.414476e-09	4.655033e+01	9.794214e+02
2.520000e-06	7.237038e-10	8.410679e-09	4.604533e+01	9.768025e+02
2.530000e-06	7.156049e-10	8.377178e-09	4.553005e+01	9.740981e+02
2.540000e-06	7.073473e-10	8.363786e-09	4.500466e+01	9.713129e+02
2.550000e-06	6.989508e-10	8.339931e-09	4.447044e+01	9.684512e+02
2.560000e-06	6.904232e-10	8.304157e-09	4.392788e+01	9.655163e+02
2.570000e-06	6.817180e-10	8.299376e-09	4.337401e+01	9.625101e+02
2.580000e-06	6.728597e-10	8.256744e-09	4.281040e+01	9.594326e+02
2.590000e-06	6.638512e-10	8.232172e-09	4.223724e+01	9.562814e+02
2.600000e-06	6.547104e-10	8.189700e-09	4.165566e+01	9.530520e+02
2.610000e-06	6.454242e-10	8.162205e-09	4.106483e+01	9.497374e+02
2.620000e-06	6.359778e-10	8.147344e-09	4.046380e+01	9.463284e+02
2.630000e-06	6.263971e-10	8.117599e-09	3.985424e+01	9.428143e+02
2.640000e-06	6.166878e-10	8.088063e-09	3.923649e+01	9.391830e+02
2.650000e-06	6.068603e-10	8.041196e-09	3.861122e+01	9.354218e+02
2.660000e-06	5.968930e-10	8.012045e-09	3.797706e+01	9.315183e+02
2.670000e-06	5.867798e-10	7.977352e-09	3.733361e+01	9.274605e+02
2.680000e-06	5.765273e-10	7.938052e-09	3.668130e+01	9.232381e+02
2.690000e-06	5.661466e-10	7.896311e-09	3.602083e+01	9.188423e+02
2.700000e-06	5.556521e-10	7.862179e-09	3.535312e+01	9.142666e+02
2.710000e-06	5.450390e-10	7.835740e-09	3.467787e+01	9.095067e+02
2.720000e-06	5.343059e-10	7.794218e-09	3.399498e+01	9.045604e+02
2.730000e-06	5.234549e-10	7.741986e-09	3.330459e+01	8.994275e+02
2.740000e-06	5.124921e-10	7.684872e-09	3.260709e+01	8.941089e+02
2.750000e-06	5.014016e-10	7.639138e-09	3.190146e+01	8.886064e+02
2.760000e-06	4.901842e-10	7.598156e-09	3.118776e+01	8.829214e+02
2.770000e-06	4.788523e-10	7.551532e-09	3.046678e+01	8.770546e+02
2.780000e-06	4.674059e-10	7.495342e-09	2.973851e+01	8.710048e+02
2.790000e-06	4.558434e-10	7.442008e-09	2.900285e+01	8.647683e+02
2.800000e-06	4.441594e-10	7.391107e-09	2.825946e+01	8.583383e+02
2.810000e-06	4.323612e-10	7.331042e-09	2.750881e+01	8.517044e+02
2.820000e-06	4.204566e-10	7.262491e-09	2.675139e+01	8.448526e+02
2.830000e-06	4.084565e-10	7.196000e-09	2.598789e+01	8.377656e+02
2.840000e-06	3.963695e-10	7.141365e-09	2.521886e+01	8.304226e+02
2.850000e-06	3.842017e-10	7.083317e-09	2.444469e+01	8.228006e+02
2.860000e-06	3.719560e-10	7.011081e-09	2.366556e+01	8.148746e+02
2.870000e-06	3.596293e-10	6.930853e-09	2.288127e+01	8.066188e+02
2.880000e-06	3.472211e-10	6.855496e-09	2.209181e+01	7.980074e+02
2.890000e-06	3.347316e-10	6.783152e-09	2.129717e+01	7.890157e+02
2.900000e-06	3.221684e-10	6.704216e-09	2.049784e+01	7.796204e+02
2.910000e-06	3.095385e-10	6.617152e-09	1.969428e+01	7.698003e+02
2.920000e-06	2.968408e-10	6.530494e-09	1.888639e+01	7.595363e+02
2.930000e-06	2.840702e-10	6.448151e-09	1.807387e+01	7.488114e+02
2.940000e-06	2.712330e-10	6.359205e-09	1.725710e+01	7.376095e+02
2.950000e-06	2.583460e-10	6.256409e-09	1.643718e+01	7.259150e+02
